,Raman PC 1,Raman PC 2,Raman PC 3,XRD PC 1,XRD PC 2,XRD PC 3
0,2.1077522353722467,-1.0553324344958024,-1.5018858250958538,-1.1587409675986884,0.009766231982422695,-0.5193837209131078
1,-2.4143400549704856,-1.3471815421562827,-2.1608476262403915,-1.3695327382184619,-1.0553417494753032,-0.7790568283583361
2,-2.162275402322024,-1.4505586484345494,-2.08616357427103,-4.320841833866032,0.569924918623443,0.4516750806328719
3,-1.9784455561897523,-1.3459004675545636,-2.086585205201392,4.16004767514621,1.7863774832319328,-1.5817136009834378
4,1.4977818817997173,-1.2309248058960287,-1.5822807428568608,1.4792323023329221,1.5979129227372357,-1.344539072063104
5,3.8310963857611795,-0.9718323934644584,-1.182029942926616,-3.68099999037504,0.6166119458142079,0.7770398825429149
6,5.751171172013608,-0.8288274751137016,-0.822913903226627,-5.179528535885152,0.4076848086702974,0.7843710147699118
7,3.4684914190931395,-1.0537751303153744,-1.220149569096065,0.5604566628764157,0.2661453022254136,-0.14952125215017043
8,-3.291363041895943,-1.9244250058540115,-1.3977544595906672,-1.7667127734658028,0.6856099754587228,-0.6338031738891095
9,-3.3049058816396752,-2.257833844666082,-1.0256647598190949,-1.598795333089838,-0.5278891828695713,0.021098756439550857
10,-3.1221836030157846,-2.269343000559212,-0.8742270282874901,0.05478725764684499,1.3881093746769022,-0.5009002811366724
11,-2.734585024485969,-2.0512793365163438,-1.131443040154722,-2.210140421497982,0.5572153001553042,-0.22188974347787718
12,-2.6087672354771114,-1.8430769522914452,-1.544989840160711,-1.7550914170156333,-1.4501122719776158,-0.5082014215210638
13,-2.120705310780986,-2.100488328269243,-1.1475192006668187,1.7096855942751445,1.5446321453636869,-1.05660908155188
14,-1.2764958330436986,-1.6053283934449347,-1.6633387409679117,-4.139533963676652,1.5716660619239697,-0.6653189589146694
15,1.3776045978667752,-1.2834854548531809,-1.4881286328865393,-6.504936158701105,0.5190671564400904,0.38427370642834113
16,4.406727595511003,-1.0129803744846935,-1.0312217282010476,0.4985513233070006,1.72320134615983,-0.6074585356920119
17,6.086168181228658,-0.8382259055794121,-0.6958588389702484,-3.7312003676542886,1.9796561168259041,0.6121955765745645
18,7.110526116980334,-0.5949313358015124,-0.41029952856133145,-4.447023178348797,1.9440409828707716,0.23197397679555168
19,5.59418252600545,-0.587442155860016,-0.8059522659184905,-0.06546648445747108,0.5580701992076029,-0.3873577010139097
20,2.6912758506509924,-1.090965325339065,-1.3601519325524265,-1.0458845059730235,-0.7967109994487604,-0.9718892310900468
21,-3.110587496697993,-2.1583532364650986,-1.1087455171708636,1.593522126703458,0.20020237168030672,-1.7125496159557327
22,-4.811687505516041,-1.3588883657692494,-0.5633413756850275,-0.39988706980091937,1.3014136036052797,-1.3939797133674692
23,-4.875954107761284,-1.2575615463998995,-0.464537607628509,-3.5513534579276826,0.142745249241565,-1.1884888222419114
24,-3.782734179938312,-1.759835894110241,-0.5881651437863215,-3.2084469596306313,0.05915446507384549,-0.19631670731961226
25,-3.373295825498961,-1.9100430760814502,-0.5619610412463806,3.5818244182041536,1.295594776582006,-1.2160188830680723
26,-1.995620587034961,-2.2243055254789352,-0.7697771470698105,-0.8986481155209326,1.2593538352662064,0.014578045311696396
27,-1.7910653162667447,-2.0200087001884675,-1.1273241576690356,-1.457786210006728,1.5280274341877949,-0.5364756402204875
28,-0.9836471853595758,-1.8146291386412914,-1.3466395548066838,-2.5181745052077624,1.052628640191229,0.42812880799618597
29,2.291215572340824,-1.2235030122758257,-1.2711771128697213,1.5790869604150146,1.3402417863716076,-1.462629756187514
30,4.468445507532466,-1.0878605225391842,-0.9878009489271549,-1.5465282169073113,0.9303724158873788,-0.6366272536085615
31,6.042138498913928,-0.8670395086856847,-0.682322655278761,-2.9000098370700367,1.6315463922085303,0.12619271620205816
32,6.958238622641711,-0.6692067515779228,-0.4539102339385248,-4.271083746419225,1.842986495793447,0.11720479380836667
33,7.619851025327088,-0.5251685593782126,-0.2301230225181764,-3.153095960251061,2.3784255384998625,0.05604064923550158
34,6.3815989998344245,-0.5226186790105883,-0.5357253334669592,0.7498029761592626,2.5911867424152315,-1.06329447743088
35,-3.0738924699638406,-2.0667418692420125,-1.3331673389335663,3.0463803292551845,0.4487438130029985,-1.724326532138361
36,-4.016700789340739,-1.5626736485843096,-0.6259814477877678,2.2919082631781706,0.6303137222257725,-1.7334641848414503
37,-4.504786458768425,-1.2714607926436212,-0.4740360730908232,-2.3469464856799287,-0.5315048024554685,0.47674727278102613
38,-5.078468495081131,-0.9832811665679498,-0.31971656278928795,-1.8218343282949854,-1.689159880509208,-0.7661059117654839
39,-3.9532084175862776,-1.450440665642453,-0.30296637503268287,-1.6284998262211632,0.6976237123185994,-1.1908353124922253
40,-3.4657857556318383,-1.7361415829066382,-0.339364570313752,-0.15522305687588395,-0.6694536824853277,-0.9710381331006606
41,-1.2210934209403848,-2.2693263141699482,-0.6035327814435121,-1.7133144866924082,-1.0856900317206708,-0.2981536087365101
42,-1.0079870136130489,-2.3739170408726142,-0.4030814679050239,-3.0732824086789394,0.5560886261702831,0.8261622106202634
43,0.17834943951764362,-1.8736300611728591,-1.1432190718336512,-3.568333589488613,0.653797886554212,0.25109664962107026
44,1.4449008415519038,-1.591166864460921,-1.2374048484647324,-3.973054602030156,1.3760823338234247,-0.144491187753765
45,5.589052217020687,-1.0551397105251958,-0.7111208898103304,-1.5235690213151898,-0.7941914259091617,-0.04629737033573806
46,6.606363367223379,-0.7728514950381136,-0.553869963468693,-3.2756534469635774,0.8786017391076582,0.371867425114047
47,7.889460760842715,-0.5571777007385825,-0.1715226460075942,-1.71381454384936,1.7828524214992656,-0.17989844887101966
48,7.751610688266098,-0.43224558374867267,-0.09392322167189268,-4.332225480103179,0.8683265004703326,1.0354959384534586
49,7.990876010382671,-0.3293986371385506,0.09100272414850194,-4.426557346102449,1.0906143554244832,1.2575468077209953
50,8.228693274753288,0.0539768411896961,0.5147736430353647,-0.46516384995711074,0.32281146089033075,-0.38830246510820315
51,-4.457050777097524,-1.3408920456794449,-0.5775393721590825,0.5260406354621358,-1.3010159457985486,-1.0015306331351606
52,-5.48015043725989,-0.7025260135068604,-0.25623257363932345,-0.7977179585367776,-0.4167782655115916,-0.8608103502152291
53,-5.555145087678383,-0.6004196995481262,-0.1505482535658386,3.27696657065833,0.2925896005828569,-1.2438767496137286
54,-5.110823662784826,-0.847029661280352,-0.1802829245480743,-0.07066488084726565,-1.5256977583948097,-0.836804358707808
55,-4.71408200015171,-0.9335438561191868,-0.11700902009001693,-0.5438453663076399,0.10716974782232293,-0.21285785284585487
56,-3.9258648352510903,-1.2093602129015217,-0.03179018607411502,-1.939535647130182,-0.7758506138748901,-0.20404800214908955
57,-2.771076176532903,-1.6696726574092753,-0.06960755685720876,-4.876579815999351,0.027695361336758744,0.500527449821706
58,-0.9096053285804563,-2.300452846765038,-0.07930200943681856,-0.36364080382185665,1.5559982380000636,0.26091323146656575
59,0.31802478116133037,-2.2314606311765495,0.596296666224093,-2.9903219565095647,0.2639410295961521,0.9525771473808007
60,2.163606068270541,-1.6571380666689317,-0.9819443797178155,0.7883577535440274,1.1899349191735336,0.27849129255375044
61,5.554470357030493,-1.2205890633843772,-0.5958184294117069,-5.06963743641892,1.3251428827046827,-0.4039156639724805
62,6.651579621363106,-0.8859123783543169,-0.46404594528225285,-4.473862800951097,1.5772834604070458,0.4154435646499982
63,7.384046657251579,-0.6628238585264383,-0.2857616602233584,-1.120253461460696,1.8619526679083158,0.4951398299732059
64,7.810421123089811,-0.45107156597670844,-0.0795299301379266,-1.9675433127725586,1.839491915720964,0.14959957967977527
65,7.954127936568571,-0.2512674613115013,0.11884635265889823,-4.80624889474158,0.31591242819782445,1.1977867065836036
66,8.208959539991747,-0.2412689506688486,0.2524669362844987,-0.2330817370844178,2.3897213288457477,-1.0282613428276932
67,8.22130862798665,0.07884329261387096,0.5293685921458793,5.4180919329270605,0.014166955078300004,-2.0678700547912827
68,8.225360378093631,0.06994712190798433,0.5303684562868014,-1.8614724884777025,-0.7327318269883016,-1.1856709208160818
69,-5.429258933670017,-0.6553068387380561,-0.22317883500453348,1.930666422061708,-0.34011438667005306,-1.0082194030747085
70,-5.619228022534179,-0.451441655050107,-0.028727788947268938,-0.7498194978459936,-1.5240956898600628,0.7327894243728733
71,-5.11374135955509,-0.6946319150375084,-0.005298818145481043,0.48714637882480827,0.06659695988223371,-0.34444069306043956
72,-4.776972057211463,-0.7655974190037895,0.04480357720172054,0.6156844860462253,1.1610670981566538,-1.0365285883683222
73,-4.339055078756021,-0.9290866610673452,0.06035007294754227,1.346436354851969,0.10463306738030298,-0.0061205970366284826
74,-2.3417904756871146,-1.5560019693772775,0.08681716985697431,-0.3601491269624478,0.6143884280150633,-0.06100206723948537
75,-1.8412091081333486,-1.7011283211339663,0.27623940138746206,0.5903428597711392,2.2562066777005394,-1.5298154595107525
76,1.0195998922405685,-2.4220497395483203,0.252974863745816,-3.2241953840055455,2.242367065323484,-0.2475771718498078
77,1.798438968481766,-2.340255216340711,0.0019081781651751274,-0.42395702055883966,1.5548767544992708,-0.5254882754414008
78,4.327735260727179,-1.642419961471201,-0.4121015146808211,-1.3219372649503482,0.6702014610434578,-0.7174279894871014
79,7.571740673945501,-0.8637103808881919,0.25050190397710975,-0.2818188177236116,1.693069382629327,-0.5657490984250089
80,7.821616018956123,-0.6447502865205573,-0.11887942538005764,-3.999330186190365,1.8030661993285395,0.33475653524390575
81,7.892251605138727,-0.4767075463899256,-0.038434601066293435,-2.570954340385938,1.3867274290307607,0.6787317363059586
82,8.17654754907473,-0.34380975352025045,0.13021377943706536,-2.767387542755009,1.851087647049251,0.6002589325496995
83,8.274626691325734,-0.22734601987992192,0.28776409840138667,-0.882557479359068,1.4088268263820583,-0.3191804265700768
84,-4.153538532977387,-1.147238382921333,-0.3077806494439163,-2.279803198010565,-0.9271901374364937,0.3117732195381469
85,-5.4246044883539755,-0.4764673648536156,-0.08492562958224724,0.41609657318925836,-0.32215246209374665,-1.006108987012979
86,-5.498202664714082,-0.43411593872956306,0.00740974722521925,-1.2117803131981721,-2.328016516194416,-0.9878724162701745
87,-5.61759389450115,-0.20475203287128363,0.2630891853872304,1.428483968465242,-0.5556285032029179,-0.818068981858516
88,-5.538028324759274,-0.3660497361887438,0.11541868125819223,-1.8152021707058477,-0.16483507030739178,0.1958432445261053
89,-4.452557884301098,-0.7273413726178686,0.17829375221048505,-1.1533224870058294,-0.7754985068145079,0.16503854898113068
90,-4.169032785111284,-0.8527045568316426,0.2566278698529103,2.942076676356492,1.4133503602718422,-0.7678050325534519
91,-3.6726288058186145,-0.9568268309714851,0.35131013814681933,-0.29957174514246376,1.4240863155941739,-0.3041605830703138
92,-2.673671799102099,-1.2532737436004473,0.45841600299608004,0.580714848997805,1.0257714519121366,-1.29031466937518
93,0.2586415429469522,-1.9969240695277215,0.7081828899485019,-1.964043073004646,1.1787112485838869,0.5632549403446185
94,3.140820781399202,-2.3897360328778334,0.4801223505278224,-4.321978544822213,1.2393340572310994,0.7468962129281959
95,6.676989207329803,-1.4221349762214819,0.11000141616606912,0.3764207627377546,1.7364268740169322,-0.6434978814135219
96,7.623821189442614,-1.0532468813374807,0.047443484425292996,-0.012603678730383183,1.141684341464967,-0.4693087072800545
97,8.136627676223592,-0.7219192596056887,0.11949601419070997,-3.61224186030106,0.6408851346635885,1.692833803343435
98,8.065965666734938,-0.3745718252285121,0.25953268851415423,-2.601927326083638,1.3058194822863969,0.13592226375803942
99,8.27465562420803,-0.3480233797991339,0.1921131204531091,0.23534229122904884,1.5910837660448456,-0.5885903868942866
100,8.280306361494278,-0.23501162110020485,0.298228108677976,-0.03482371507460502,2.265533376200814,-0.5962168130242782
101,8.154539391226066,-0.1635729210517238,0.35035820140981705,-5.502053482940412,2.099758307432024,1.2348150469586283
102,-3.994197298896664,-0.8708806832711772,-0.08078784985029967,-1.08370608295641,-2.1844426370672854,-0.0801062806131766
103,-4.8600056711734085,-0.5205184237276258,0.061158544309161816,1.1995040553713268,-0.6457292190573265,-1.614166833935246
104,-4.996085389331753,-0.4575579902690096,0.1445211109712058,0.9238097694861253,-0.700371988106057,-1.0586938336934875
105,-4.830566786247695,-0.4980371253309503,0.21937412434706935,-1.3321209899723825,-0.1467383011338962,-0.37164525422189926
106,-4.824298534010629,-0.5442111626810295,0.27078495426044646,1.4538670269589622,-0.9209346901877585,-0.6951281502669472
107,-4.565484189135026,-0.5832882804208406,0.3409186505168186,-0.35136800737507595,0.4358752896484181,0.10453122049935439
108,-4.248552183875673,-0.6268876019086085,0.4423495759879692,1.8870128152539627,-2.1423234170637575,-0.2068271753057982
109,-4.31294870331729,-0.6380329230080363,0.5205128634693297,0.2075506691330835,0.6471137726032138,-0.7209555969244842
110,-3.2435683516289444,-0.9312109366948013,0.6909554025428363,1.8631482379855744,0.7517700595953342,-0.8909738841391804
111,-1.8996676598248448,-1.345284015597997,0.8997564428628608,3.1836161571294848,0.605311708884765,-1.0468820154848038
112,0.6005275629442405,-1.8532620722866657,1.1481024428624413,-3.64683801128015,0.7918555596197512,0.27331951819344547
113,4.638683945384295,-1.6489378901793112,0.8072911801309071,-3.022069882912982,1.9600293590899796,-0.3727988300311632
114,5.450537844498867,-0.8824867412834311,0.5052702361914725,-2.906598924446366,1.01314803829537,0.78897916488239
115,7.803743827351712,-0.5774088987160737,0.3338659412564157,-2.7037661985475197,0.9554541613872012,-0.38211405923470554
116,8.360166776478302,-0.3942895075982094,0.3097306604659365,-3.037598545438276,1.7155913529545965,0.18443241149257153
117,8.410021286578662,-0.2933066842630498,0.3342576214044953,-2.1055786856500003,1.658200530466944,-0.0639770994671724
118,8.363644612551,-0.21653790271436976,0.35146699258326813,-3.584156379404104,0.9431497098976064,-0.5096633225122807
119,8.038377142979671,-0.08095949019921383,0.2868468508197455,0.5165224218758893,2.130223459662731,-1.2659560178084466
120,-4.462615617366952,-0.6156647899082879,0.08721602595857283,2.2371582517224313,0.27142441699233694,-1.0310305956174437
121,-5.276152885502741,-0.30529813286262647,0.17006466762860784,2.7337603189064206,-0.4345761806754321,-1.2471050252336402
122,-5.24176298915723,-0.28588485503210825,0.21624330904834596,0.4215366793215996,-1.4727470160826261,-1.1542817750288665
123,-5.086121796566661,-0.3270986872259137,0.3402460660975018,-0.019359440519470188,-0.6754050300369222,-0.16950149227387667
124,-4.970718813465173,-0.3538814445352576,0.35407063633403785,-2.4327384082981975,-0.7226525699152141,0.7973092461407213
125,-4.987272618526536,-0.33968548977178353,0.46169289836268684,-1.3037050019638172,-0.09502630651803011,0.40442825183055425
126,-5.1037357442418,-0.2649691031803796,0.49769740403239676,3.2217479028370435,0.35060026816351875,-1.8899307934695466
127,-4.5629725411947915,-0.3842588028561153,0.6658219169249394,-2.2577786999724583,-0.11288364245049239,-0.3580500593900423
128,-4.414572843759976,-0.48514815483822693,0.7370627247620053,-0.06617684482947203,1.4133103218399339,-0.31793534295415
129,-3.1616167556697663,-0.7972864000179081,0.9214708829790718,-3.7102060259659897,1.0377626510223645,0.6875339702280975
130,-1.3410327954600876,-1.3284789706404871,1.1903642399874825,-0.6238886552171424,0.7928922269913572,-0.7379790462016228
131,0.7738966886460357,-1.5895618924475325,1.5226487404226143,-0.9081862589274825,1.708754767095243,0.6991861077658356
132,3.2779848518214156,-0.8274848833233227,1.068080445508028,0.23613106463850764,0.1516208733568105,-0.6799797573426699
133,6.977239171806831,-0.40063736411901407,0.5866548308589568,-1.0328305958598172,0.818267719158922,1.051040507906322
134,7.915856598471398,-0.30888555135348716,0.5222906880774796,-2.532263472054258,1.432714947491253,-0.15850702322284232
135,8.334565733803581,-0.21831292827401705,0.4857234074439854,-5.197802541389131,-0.12670523850136814,0.4925425472469816
136,8.36671933456396,-0.1366384087108707,0.4147310031483124,-0.0181128325680178,1.8888875294562442,0.5502285705042236
137,8.351298218155302,-0.05664133367201781,0.46332972786735505,-5.485444311218575,0.9844284671155491,0.5592905645221434
138,-6.496193286208893,0.16247784010607455,0.10603767676564206,-0.9396368356784549,-1.5340858182845176,0.44870441171502146
139,-5.938155108069166,0.07598729417754592,0.2773689477157832,-1.610012142246009,-2.0210762389615136,-0.1290872278623498
140,-5.989716664829622,0.06278348985473375,0.2627513237893191,3.3428959168912877,0.13001143716062002,-0.8050959356138074
141,-6.353668798382841,0.32840986268596667,0.34886029873820856,3.1669006686458596,0.5206442382980941,-0.8677925854884232
142,-5.832515410532755,0.02339489197916798,0.3627197483945434,0.4139793194238717,0.47332648224500673,-1.4005946178147777
143,-5.414816707901115,-0.12010811334489571,0.500484504410207,0.641482061399132,-1.1033612994031872,-0.26825197092196496
144,-5.380434308929504,-0.18324311795238993,0.5830151827045633,-4.21905164207893,-1.7191777978306146,-0.40029923329646294
145,-5.437284003308625,-0.1692929693846482,0.6786122024566985,-0.5940855196288597,-1.5517331863618495,-0.7635323458722107
146,-4.351342849516732,-0.43238716405645944,0.853227940200892,0.5581270827593431,-1.583257147095636,-0.19144967868332616
147,-4.375329637033462,-0.2877618550143392,0.923822539064005,-1.724531418673854,0.6747098674884988,-0.009504639564258451
148,-4.389322446560204,-0.3142721829958592,0.9474068371925324,-2.811095891286804,0.23827449992952413,1.450638516904214
149,-0.9878188706128235,-1.006563110527595,1.8427221640480795,-3.1926124306090413,0.7819368606294241,0.7893651825364265
150,0.2841912280427043,0.06731358193660948,1.934540682532786,-0.0990572635338909,0.2971319257298549,-0.2187675609621456
151,4.481513456812518,0.31381123646029,1.0270181757386705,-2.0547559313076036,1.4024937262205266,-1.180791365102013
152,7.583285178508738,-0.07150954167569111,0.6612719702946844,-3.0995905921045566,1.0575366077812047,-0.07553358680479462
153,7.006515631224823,0.06167463873585149,0.7367340318809878,-6.426706946935826,0.5576933954241238,-0.16117641633521593
154,7.999720391454311,-0.0023746737329363395,0.6724189887344822,-0.7148933953472165,2.4587030284400635,-0.33075345176579424
155,8.313106700286008,-0.038831942421954875,0.6564086507291201,-3.0674434758828424,1.8388675156423029,0.9281137589240742
156,-4.713346363516272,-0.29434326171310304,0.30560725565980834,2.0537717806806572,-1.014436394905947,-1.22653958570229
157,-5.335615200700683,-0.07607151561001937,0.31178119671794546,0.3071071565054133,-2.1138378085323057,-0.20182653064430325
158,-5.433405312836498,-0.054394506671759636,0.39175040699035907,4.741524348227647,-0.36563150421150253,-2.1006025740383105
159,-5.885226380638218,0.1447428987926036,0.3361357164982118,-2.1456951236340673,-1.5046841021039024,-0.45420555515136324
160,-5.264544873895553,-0.05296294539161955,0.5292526235759739,0.6375323016061704,-1.3950767675188993,0.40347924996211165
161,-5.432853941355226,0.08706663449037177,0.7149657493939199,-2.2380406643558888,-0.7089683777497047,-0.5832918007137279
162,-5.176023646577834,-0.10368669647075018,0.6950085897777959,1.1797437769606791,-2.183970823705301,-0.26823908191084533
163,-5.0137337382963665,-0.10678849929065332,0.8257961091494016,-2.0751600467397897,-3.5082784802582294,0.9718770240205059
164,-3.259675628668012,-0.3248046334865534,1.2849036098719577,3.6330555717881756,0.6218788269934257,-1.6420411213365111
165,-2.44047989189127,0.2102042075702061,2.179273732774974,1.165049631775704,-0.2782509583192148,0.09222545383658667
166,-2.5217487486308734,-0.13391262694199052,1.875603728151017,-1.684848116669665,-0.9090469791539667,-0.9789823975953631
167,-1.4715033896386387,0.804029493949212,1.2878404949170013,-1.828365853115363,-1.194376523934834,1.8751870461112092
168,0.2343855883023337,0.8342631516618988,0.9983970628330862,-0.00779451143793878,1.6186441474088247,-1.016247138399073
169,0.003028571350655232,1.035391886361024,1.0445096063994177,0.37272918245278974,-0.04747349916959042,-0.7303450669648603
170,6.496734346478855,0.41933470484930335,0.7641860136795474,-3.68037878164991,-0.4953024658492606,1.4540839490601845
171,6.5696577799349,0.2922308613560984,0.6565121114405176,2.7362320545284744,0.9050561812084748,-0.9060148463358685
172,7.451061315541396,0.338993212915624,0.7274419000066742,-1.6823454621431018,1.4805807173430714,0.4927100226988183
173,8.082037939550595,0.15337846230862848,0.7010391803868589,-4.266027269112126,1.8698603038661539,0.15441117058213596
174,-3.628120790491665,-0.44039335853261585,0.47129031418636,-0.15447639934279844,-1.932078363741167,-0.9640139618016599
175,-5.925264764031227,0.1913936187954326,0.31694429907939276,-0.9655389492495731,-1.9953176127308339,-0.2876555684509657
176,-5.628439037847937,0.12260313666189569,0.4095988718428563,4.634368559670555,-0.7305936865123673,-1.5924587578484755
177,-5.749474240658278,0.18029670811125,0.4365338932555138,1.3560015884730134,-2.5910015773700614,-0.17033473001741556
178,-5.061109316691917,-0.007943873055014126,0.6329562247817617,0.13150838119219482,-2.664648738336012,0.7820050170853474
179,-4.666641317044747,-0.05355222044969477,0.7938406036574406,-0.336091609699878,-1.2260856969794978,-0.13114941435066158
180,-4.325352234476772,0.00031826870080311565,1.0536459726609155,3.7040769595639365,-1.5400504912541886,-0.5866212472219106
181,-4.790264067043651,0.28128463191832753,1.1706118818053954,-1.399212306084278,-1.2326976309258022,0.051346460371743556
182,-5.234622121792409,0.542287716023571,1.2551305112991156,0.4423633137970544,-1.9815294972406283,-0.5720929292527931
183,-1.595078331082652,1.0874352064974004,1.94233537349722,0.002248106692695907,-0.36126613875584845,-0.5361958947429957
184,-2.0866295193472415,2.2417589984349835,0.21543292528247854,5.507654676548429,0.19977991419244112,-1.506370043347687
185,-0.5598960194435861,2.436707817483724,0.4438682334604424,1.995810734768457,0.37189451591438183,-1.022951166959709
186,-1.3818833307758351,2.575612248987222,0.6218994086130625,4.117513043933885,0.6272823448161188,-0.8434702758552123
187,3.760062802519372,1.515077142706768,0.6330094313750112,-6.792443319571152,-0.5243727952621757,0.8114961496521413
188,5.689822361891527,0.8049377073833864,0.554062532286451,1.1830956163883193,-0.09343650464569665,-0.08836643099886828
189,6.302383845120261,0.8390941184129348,0.719009021988562,3.575158649752855,1.5996281798192855,-0.7793367746175841
190,6.836678911068596,0.6234935260650684,0.7475765343848344,-4.755467242030516,0.7700202996441367,1.1528485522433387
191,-4.454569090000601,-0.11854889561656572,0.5000137061579901,2.575314321310109,0.16149978222114295,-0.8263205636932011
192,-5.585887364060934,0.17031071821194294,0.44210442876958234,1.3575949773372615,-1.3583679361439558,-0.7380371341314563
193,-4.993564626390668,-0.010333804800767217,0.5921430043098952,1.9062532264126828,-1.6480560556051593,0.045854643318166834
194,-4.759193245290519,0.013408234558745442,0.7368546169954949,-2.9514037312351307,-2.413840834383824,1.0446497991644377
195,-4.151232855315976,0.23094938524466227,1.0646182639814783,1.7793585478034868,-2.430020896605944,-1.011413962313866
196,-5.8081353956356985,0.8165521535404678,0.7528872672878987,0.4524921577061312,-3.022044485409704,-0.09657361299137607
197,1.2267042903234695,2.314121792713703,0.786209373387242,2.3519396140261457,-2.4975296950882533,0.417893016497192
198,-0.09370317513126476,2.470853563081425,0.3414449967062511,0.8838172507059681,-1.9268592155427768,0.2211820115074237
199,-0.03719460227705046,2.689010597067538,0.03373847941826963,3.2811373272460322,-0.333657962970466,-0.58903561566567
200,3.037689442080678,1.768708559314838,-0.022345880284572267,5.792272037061017,0.31330691629425333,-1.8228248071468436
201,1.490788888483489,2.182292143577318,-0.23853376197262194,-0.24573835906101757,-1.2629369374310222,0.6344821997727716
202,1.1224714635852142,2.2020674634941138,-0.3987592320301363,1.5414735108838802,0.40424137980338415,-0.7588271971537157
203,0.0671577570934126,2.4335295040166676,-0.5548468635973299,2.138706481024354,0.1476282874454983,-0.6777011832106576
204,0.7632269772663898,2.0292955709289755,-0.31504615463292046,0.9165548807357993,0.9034514683238957,0.5894258324258901
205,2.5390957282334212,2.003007952837905,-0.08471181771642525,-3.1026014626748775,0.0075605272827206195,1.35745313917706
206,3.7838304141497963,1.7102317105990423,0.22466055922835457,0.9984693142727259,1.787255859982795,-1.0264648664616725
207,4.5619961619056975,1.237516622137094,0.8967111946942211,-6.825525769121025,0.048194570870824176,1.1219771214040488
208,-4.838288334550661,-0.003604240391131555,0.6083463013012148,1.2745085893255894,-2.7128265999206507,0.6639370378898002
209,-3.226205900633559,-0.04563117233869708,1.032560521309884,1.9020828287278133,-2.7357546823054073,-0.2722753881655668
210,-2.567969681957351,1.079249016215565,1.0238184412182272,0.7463862723975361,-2.767202868121132,0.04074070596940232
211,-1.5161152438203003,1.8753767512870083,0.051123141176932375,3.1819307710823272,-3.135075079261738,-0.7713204004637396
212,-2.7244954916351807,2.863753721039355,-0.9398870226599777,5.297925688602596,-2.6799301691824424,0.02775506157940875
213,-0.2349956728570565,2.296100024070571,-0.8241828494561652,2.83236770989405,-3.2995832715885096,0.6541941840497494
214,1.864657644429758,2.1387887378888952,-0.43768736338949293,0.004679886036153542,-3.177081387485632,0.5433269732840238
215,0.5471818832890223,2.3511359113589303,-0.6238625664981169,-0.009955291387620174,-2.540328381426671,-0.2472031780096858
216,1.5512645970149985,2.4237183624312095,-0.09411793052578389,-0.5840285469997658,-3.6799041518045588,1.0600314129203823
217,1.3412224541145268,2.177449810210468,-0.8091046362681097,-0.9778959253696328,-1.0641820883796302,-0.27967903565196806
218,-1.5699895118291929,2.268086663838225,-0.7870114730585634,-0.5094046156462658,-1.8790505194230758,0.0895164341432515
219,-2.390540397908429,2.5742344564321553,-0.6584078608586601,0.374814037295738,-0.24192483401209175,0.14288678931863752
220,0.03059446736106495,2.059508415163559,-0.5585590267755416,0.6818371105968927,-0.39165162954558486,0.08997029930822857
221,-1.640585530635732,2.1036819924940393,-0.2982712182933686,-2.6340973190013193,-0.8227668597151865,1.3157680375028202
222,-1.9096245409162593,2.3325955703405357,-0.7072457577012171,-0.574609634126276,0.4987685910536058,-0.3027381427750675
223,-0.5751289958288557,2.2563940057166887,-0.30749728064336984,3.5090234531166193,-3.2700832590710847,0.9092080761709146
224,5.202550517883244,1.2486139279403417,0.21906982368326192,3.7589674213494435,-2.3233945334681296,-0.05887635731517727
225,3.170485310910664,1.5107555281931757,-0.2852795715229376,4.439328481687642,-2.6589575171003386,-0.3478524157455189
226,1.0881827671324946,2.10208346362458,-0.7201216297692425,1.8377290233225894,-3.491517450126076,0.4125568563539429
227,0.4405925265108714,2.2639862205402523,-0.8108601475220076,4.1729921549953986,-4.002875394357538,0.09198049084585604
228,-2.5984776400848393,2.478325758737356,-0.926071384151889,2.7650874071609337,-3.213142590261694,0.3912768419043486
229,-2.7043106511587256,1.7779456922346075,-0.612375773906248,1.5961156898451287,-3.0767840112735834,1.1105788202647002
230,-0.4583345210082833,2.319326288433745,-0.7655810214435985,4.482661312573761,-1.6211515731486037,0.08749935907311143
231,1.3636643629238403,2.166739834063672,-0.6263362417765261,1.688893640325372,-2.339772565201464,0.590000198099074
232,-3.7274920786012706,2.480930134797107,-0.9832473754751943,2.1939201945601217,-1.269969773952153,1.0916395995343924
233,0.05877859339844898,2.1680780388305134,-0.6192438264032443,0.0844826802633938,-2.34535424858151,0.4517328718026797
234,-2.114485381666832,2.441722098253808,-0.9753374179153158,0.6340611707173831,-0.38872924146342197,-0.07156786209301334
235,-0.7632067156864584,2.1366975858052277,-0.6158497558807277,6.440916481645354,-0.011514220164965432,-1.1527428627663676
236,2.9016451838877764,1.8368246268585215,-0.6359260516817322,3.2579926294270103,-2.905430482809256,1.4799968915356705
237,1.9955443029904973,1.7286396567680822,-0.47882176158214035,5.121844944859859,-2.960658698484486,0.7063339068626826
238,-2.0198032508287844,2.336032194092986,-0.9700892080671909,-0.8013971596595909,-3.621032796908006,2.2097166709618428
239,-1.5958512032651184,2.3915320447465795,-1.1977471107959639,-1.244043772031219,-2.4796179654338233,2.9495565042814755
240,-1.8472550244849166,2.340831594839418,-0.8192239236124244,3.709744730758989,-1.8774295957067706,1.385492638309308
241,3.3047804451604756,1.4394134785860078,-0.14341331084371045,2.840989774480347,-2.0734922979259,2.3097619380491303
242,-0.41844904863064725,2.178817565139388,-0.3726553279596665,-0.13862716767317823,-1.3102300637321225,1.4134868859830576
243,-2.803212779485055,2.3021633060859443,-0.6917441614834181,-0.09589855460430705,-0.37003005200137906,2.3069028117528796
244,0.4458334754862936,1.917201385977306,-0.33896178680651723,-0.5493151450651634,-1.8043938632981555,1.8119574425887506
245,-1.9281159017192004,2.4720749306902077,-0.7567321534072722,-0.4898671255079451,-1.593424923201969,1.9501279841598946
246,-3.8440872806923365,2.544310718039909,-0.7145602024362122,2.7453285042722775,-0.5238950810120989,0.5826650140841481
247,-0.7697235387531142,1.9935565493359046,-0.7459673452940525,2.8020025434871876,0.8733975540018201,3.6889407614864744
248,-0.1893072171301193,2.322146047960695,-0.7205865126479224,6.641597324911636,1.827430390406696,3.1707941358803042
249,0.10939027578513247,1.8957715679462401,-0.5483145503423312,6.726757941460285,1.155479705857329,3.1726013921503804
250,-2.7642481550803955,2.6146876128489214,-1.1629368882900009,9.198852152252131,2.5839590680886717,2.4858934805646347
251,-4.256825093614317,2.7734179368049405,-0.9646151079277652,8.491219880481482,2.065142672902257,2.02911802363488
252,-2.9172431853410905,2.529820025916082,-0.8088678281323514,7.2517652972644235,2.4800102573403477,3.203970587362825
253,0.7219636390908771,1.8698357490432909,-0.12434737092865104,6.980354839473858,1.7447558578571147,2.6787504738136496
254,-2.137742066308192,2.2789530930875292,-0.8501869079734065,3.618406056791259,2.1477433229894425,3.3858718824904233
255,2.765169314403861,1.5623258739425159,-0.11042053790903598,3.976742891251445,2.8676244161824567,2.1647980963123366
256,1.8233434522446477,0.07072578479291547,1.372098792880426,14.64863711944224,4.829827896648111,1.440538427886219
257,-0.10840171773403189,0.03935215378565369,1.3867690756344508,13.43362917627316,4.727225399076346,2.0188997925150627
258,3.1733091035076058,0.28844565473169775,1.0682344868301092,13.793431835112445,4.5779246239657905,1.6616145207912594
